Warning: You are sending unauthenticated requests to the HF Hub. Please set a HF_TOKEN to enable higher rate limits and faster downloads.
Loading model + catalog + embeddings...
Loading weights:   0%|          | 0/391 [00:00<?, ?it/s]Loading weights: 100%|██████████| 391/391 [00:00<00:00, 64700.87it/s]
9084 buku, 40 query GT

bm25_w dense_w  MRR@5  Hit@5  NDCG@5   <- baris ditandai = produksi (0.3/0.7) & optimal
  0.00   1.00   0.7333 0.8750 0.4865
  0.05   0.95   0.8600 0.9500 0.6461
  0.10   0.90   0.9113 0.9750 0.7078
  0.15   0.85   0.9258 0.9750 0.7492  <BEST-MRR
  0.20   0.80   0.9208 0.9500 0.7547
  0.25   0.75   0.9208 0.9500 0.7659
  0.30   0.70   0.8917 0.9500 0.7619  <PRODUKSI
  0.35   0.65   0.9042 0.9500 0.7700
  0.40   0.60   0.9092 0.9750 0.7669
  0.45   0.55   0.9092 0.9750 0.7740  <BEST-NDCG
  0.50   0.50   0.9042 0.9500 0.7655
  0.55   0.45   0.9042 0.9500 0.7588
  0.60   0.40   0.9042 0.9500 0.7564
  0.65   0.35   0.9042 0.9500 0.7535
  0.70   0.30   0.9042 0.9500 0.7499
  0.75   0.25   0.9042 0.9500 0.7465
  0.80   0.20   0.9021 0.9500 0.7448
  0.85   0.15   0.9021 0.9500 0.7442
  0.90   0.10   0.9021 0.9500 0.7374
  0.95   0.05   0.9021 0.9500 0.7275
  1.00   0.00   0.9021 0.9500 0.7263

Optimal NDCG@5: bm25_w=0.45 -> NDCG@5=0.7740
Produksi (0.3): NDCG@5=0.7619
CSV: /Users/gema/Documents/Skripsi RAG Chatbot Perpustakaan Politeknik Negeri Jakarta/Teknis RAG Chatbot Perpustakaan/rag-system-v3/output/grid_search_weights.csv
